shp1,shp1,shp1,shp1,shp1,shp3,shp3,shp3,shp3,shp3,shp5,shp5,shp5,shp5,shp5
shape,p_avg,p_std,p_srs,HSI,shape,p_avg,p_std,p_srs,HSI,shape,p_avg,p_std,p_srs,HSI
23321.0,-2.3489681238098923e-05,0.0004574167243176849,-0.05135291297697475,0.0,32112.0,-0.00016669818719160297,0.002700561713940024,-0.061727227462021673,0.0,33221,-0.00020613774282344724,0.0025513480829381066,-0.0807956171100186,0.0
32113.0,-6.0470827345415724e-05,0.0012157327286590265,-0.04974023148337551,0.01222580493974451,13221.0,-9.688755985012055e-05,0.001577232267530872,-0.06142884712965975,0.0020935362104949674,32211,-0.00011524062502461991,0.001463221873319768,-0.07875813444693877,0.010196044641060754
33332.0,-8.856797392967541e-05,0.0018839165289780112,-0.04701268478053104,0.03290344902840822,11332.0,-5.1862410046026016e-05,0.0008796083147768955,-0.058960800136570374,0.01941017939650942,32221,-0.00016790354855772042,0.00216064089125786,-0.07771006706254273,0.015440821458935015
23333.0,-5.682179748245637e-05,0.0012873357267232414,-0.04413906668083348,0.05468846640329739,23323.0,-0.0001121853279973023,0.00190962470472772,-0.058747317061599295,0.02090804805374267,33321,-5.823565986000013e-05,0.0008219869293993835,-0.07084742807595769,0.049783088380085896
22331.0,-6.750078921310427e-05,0.0016334298594007203,-0.04132457162125666,0.07602526957170506,12322.0,-0.00024946548988118725,0.00426207436981326,-0.058531472760790286,0.02242248386120909,32232,-0.00019544728089802247,0.0027677301049578826,-0.07061645228626678,0.050938945804233436
13222.0,-3.019104000278127e-05,0.0007521976704355962,-0.04013710915283438,0.08502747153769726,23211.0,-8.191405209662653e-05,0.0014804191797647016,-0.0553316609351454,0.04487343386428115,21222,-1.897167887155418e-05,0.00029471315050910545,-0.06437337064457879,0.08218080138901564
23223.0,-0.00013634484777308377,0.0035031546142632506,-0.03892059094906906,0.0942499462321202,12212.0,-0.0001356970492288738,0.002593886278469042,-0.052314185997762636,0.06604504727346977,12311,-0.00013706282199483846,0.0021723006899412385,-0.06309569509852066,0.08857459169725247
33322.0,-5.4881632300471515e-05,0.0014987125259096202,-0.03661918570218259,0.11169699436122248,13211.0,-7.026113687099499e-05,0.0013658335772556828,-0.05144194581317001,0.07216497614491604,33331,-8.489934156390479e-05,0.0013468462048734583,-0.0630356615749468,0.0888750136333066
23231.0,-2.0787513281526392e-05,0.0005708055835010248,-0.0364178520364615,0.11322331318777275,12222.0,-1.0900820916682852e-05,0.0002119949984654936,-0.051420179700405425,0.07231769447213847,33111,-8.739228444673757e-05,0.0014147103203467814,-0.06177397817053848,0.09518877548627248
32333.0,-5.679984493626476e-06,0.00015596703748314662,-0.03641785203646149,0.11322331318777286,13322.0,-8.813513851654023e-05,0.0017201892335559,-0.05123572267357535,0.07361190666733299,11231,-0.0001761686772418165,0.002939967223453295,-0.059921986829121254,0.1044565777277918
21231.0,-2.589758342766235e-05,0.0007111233084733755,-0.03641785203646149,0.11322331318777286,22212.0,-0.00011611697942433695,0.0022974888576336996,-0.05054082375134203,0.07848754992710649,22212,-0.00029091412657767,0.0049010520522558675,-0.05935748559205107,0.1072814752925158
12213.0,-1.1186151693166133e-05,0.0003071612153832296,-0.03641785203646149,0.11322331318777286,11133.0,-3.572995755345515e-05,0.0007386108631082652,-0.04837453568323415,0.09368695156677624,22121,-0.00015883016774545007,0.0026812985451107377,-0.059236286102892874,0.10788798617200607
21321.0,-5.58019802013409e-06,0.00015322699467687457,-0.03641785203646149,0.11322331318777286,33232.0,-9.049957777942484e-05,0.0019001039874050089,-0.047628749994373214,0.09891963340119916,21321,-0.0001099195966576677,0.0018835782410894749,-0.058356798915923686,0.11228914785159747
21322.0,-9.007115511371146e-06,0.0002473269291761974,-0.03641785203646149,0.11322331318777286,21321.0,-5.605115063715711e-05,0.0011892762701853315,-0.04713047089422069,0.1024157262262344,33311,-0.00014243487900638538,0.00248157250708393,-0.05739702491053107,0.1170920837399061
21133.0,-2.9979504347178518e-05,0.0008232090216952689,-0.03641785203646149,0.11322331318777286,23331.0,-4.970088153861381e-05,0.0010576371834783767,-0.046992373485921356,0.10338466383201295,12332,-8.69921210314507e-05,0.001578608443438734,-0.05510683880668529,0.12855271610467514
23313.0,-3.319853053695304e-05,0.000911600456383719,-0.03641785203646149,0.11322331318777286,23321.0,-0.00013803031499854285,0.0029557858287519753,-0.04669834791677838,0.10544764556723528,12233,-6.330406122878572e-05,0.0011632247009561196,-0.05442118034181406,0.13198391306307317
33233.0,-5.02773028548061e-06,0.00013805674976236532,-0.03641785203646149,0.11322331318777286,11232.0,-0.00014690446585572758,0.003173994636872884,-0.04628377885366004,0.10835640077411822,32231,-0.0001191333600878393,0.0021944473604467913,-0.05428854764763355,0.13264763840181273
12112.0,-1.527306370763822e-05,0.0004193839793831568,-0.03641785203646149,0.11322331318777286,22332.0,-0.00013858989736847542,0.0030831538825392924,-0.044950690963998355,0.11770979128309403,23122,-4.955142868379271e-05,0.0009320421477476772,-0.05316436472699869,0.1382733153468057
11332.0,-3.612598451211311e-05,0.0009919855920097604,-0.03641785203646149,0.11322331318777286,32122.0,-7.064746111787774e-05,0.001580105790842464,-0.044710589333522205,0.11939442462880327,21311,-5.257782178732997e-05,0.0010208644834366336,-0.05150323342656826,0.1465860088488207
13211.0,-2.3181798226315643e-05,0.0006365503984997816,-0.03641785203646149,0.11322331318777286,12221.0,-4.108731819193273e-05,0.0009570499917497644,-0.042931214195836544,0.13187911573867472,31221,-5.406428697198413e-05,0.00105336999134559,-0.05132506850980407,0.14747758818724446
12312.0,-2.0162069793798858e-05,0.0005536314929725299,-0.03641785203646148,0.11322331318777291,11132.0,-4.625097737824316e-05,0.0010785379850205951,-0.04288303056601198,0.1322171882014014,13332,-4.3669351460068085e-05,0.0008529165001570304,-0.05120003124810943,0.14810330418725567
33132.0,-3.795149144028159e-05,0.0010421122970757483,-0.03641785203646148,0.11322331318777291,22232.0,-9.420232232039159e-05,0.0022399589719225696,-0.04205537846951598,0.13802427213347754,32332,-0.00028037673487855936,0.005532096641382352,-0.050681821568558,0.1506965478608727
32312.0,-1.3997160386997569e-05,0.00038434887299184034,-0.03641785203646148,0.11322331318777291,11211.0,-9.3101870027401e-05,0.0022323544293255085,-0.04170568472656518,0.14047784039535283,13331,-3.280510233640249e-05,0.0006546120589754605,-0.050113806928253145,0.15353902732549304
31321.0,-3.660624535421569e-05,0.001005173103497856,-0.03641785203646147,0.11322331318777297,33311.0,-4.5170250583496406e-05,0.0011185517366616275,-0.04038279956393366,0.14975964515900028,12232,-7.320715378955305e-05,0.001462058798901262,-0.050071278832676404,0.1537518479638509
12321.0,-5.8941299170031945e-05,0.00161847269605632,-0.03641785203646147,0.11322331318777297,32111.0,-4.505788286111825e-05,0.0011453525131451577,-0.03933975116306204,0.1570780216057257,13232,-9.958576232445717e-05,0.002011218714969671,-0.04951513307987437,0.15653493271115104
21132.0,-2.960423144997788e-05,0.0008129043805312348,-0.03641785203646147,0.11322331318777297,22211.0,-2.985604512847765e-05,0.0007937523663792144,-0.03761380298577145,0.169187851291862,33312,-3.35956050248669e-05,0.0006817517637586652,-0.04927835439639505,0.1577198291868626
23211.0,-6.624471369109621e-05,0.0019524772354285829,-0.03392854599739034,0.1320948449749261,22123.0,-5.216653118192644e-05,0.0014230724617945085,-0.0366576773723412,0.17589634838901647,12221,-8.982523568265803e-05,0.0018976247282509197,-0.04733561612334796,0.16744175051498986
22212.0,-0.00019953681719277297,0.006212891590949549,-0.03211657796885471,0.14583144935828057,23332.0,-0.0001698568790056407,0.004642573917544228,-0.03658679043617458,0.1763937148425663,22232,-0.00012936862166173306,0.0028111638622429092,-0.04601959473060218,0.17402743250000569
12233.0,-5.843386422636117e-05,0.0019267660413758154,-0.030327431027711193,0.15939504613655237,31221.0,-2.2356842249676077e-05,0.0006138978824806152,-0.0364178520364615,0.17757904315942533,32112,-1.0117565721885798e-05,0.00022208826015309517,-0.045556508547148405,0.1763448251751492
33223.0,-2.091978986971065e-05,0.0007695932084629809,-0.0271829190274318,0.18323372134841984,33111.0,-1.9047794070639435e-05,0.0005230345285484936,-0.036417852036461494,0.17757904315942535,22211,-0.000102923090608467,0.0023407949404250735,-0.04396928959090146,0.1842876438436375
23312.0,-4.147503223296134e-05,0.0015362345688818102,-0.02699785115703396,0.18463672850952279,31322.0,-3.9388371481671063e-05,0.0010815676729708137,-0.036417852036461494,0.17757904315942535,11333,-3.742622483414787e-05,0.0008628187357725948,-0.04337669464332536,0.18725312897342003
22121.0,-4.987269382613747e-05,0.002045543055218385,-0.024381150863046975,0.20447404139928485,33211.0,-8.143785574578658e-05,0.0022362070026604296,-0.036417852036461494,0.17757904315942535,22331,-0.00013112431299592742,0.003099266275038304,-0.04230817921390341,0.1926002326398533
22333.0,-2.1545215345708226e-05,0.0008879734682423789,-0.02426335483688945,0.20536705793366866,33331.0,-3.3136847963040004e-05,0.0009099067108588241,-0.036417852036461494,0.17757904315942535,31231,-3.0343178217274702e-05,0.0007173762418022371,-0.042297439543083674,0.19265397649009192
12221.0,-2.4133042956088638e-05,0.001046648610587633,-0.02305744517497551,0.2145091088346241,22331.0,-2.5718935888046975e-05,0.0007062178148864249,-0.036417852036461494,0.17757904315942535,23121,-6.938552912499676e-05,0.0016466881830595346,-0.04213641042597327,0.1934598042383813
21232.0,-0.00010730824628071644,0.004676885985348766,-0.022944379362011373,0.2153662654276275,31112.0,-7.551778799241783e-05,0.0020736475044384707,-0.03641785203646149,0.1775790431594254,23322,-0.00012801888688097389,0.0031305450367044656,-0.04089348192726841,0.19967971211199484
12223.0,-3.743475450193723e-05,0.00164487586857623,-0.02275840701240268,0.21677612948294533,21312.0,-2.7102935920966794e-05,0.0007442211554330931,-0.03641785203646149,0.1775790431594254,21211,-0.00011229295833906758,0.002904091793009996,-0.038667151847386894,0.2108207938456159
21222.0,-6.618261992424206e-05,0.0030190358941896067,-0.021921773123537946,0.22311868551266187,11321.0,-2.3181798226315643e-05,0.0006365503984997816,-0.03641785203646149,0.1775790431594254,11132,-0.0001552282786410214,0.0041666096207444315,-0.0372552969369104,0.21788604939589348
32232.0,-7.258833006665771e-05,0.003406080492266863,-0.021311395967142193,0.22774597991852474,11231.0,-1.803255846060578e-05,0.000495157112576316,-0.03641785203646149,0.1775790431594254,21231,-1.0766044930778358e-05,0.00029562547840546476,-0.036417852036461494,0.22207682154042738
32112.0,-5.2825585678212095e-05,0.0025711313351877074,-0.020545658230389667,0.23355106929401198,31133.0,-4.0066434763199196e-05,0.0011001866535973828,-0.03641785203646149,0.1775790431594254,32321,-4.294909167559785e-06,0.00011793417039697259,-0.036417852036461494,0.22207682154042738
32123.0,-3.571573381408609e-05,0.0019186653834423752,-0.018614884138893815,0.24818834734242415,23112.0,-4.536818464107836e-05,0.0012457677239079293,-0.03641785203646148,0.17757904315942546,11323,-1.3368877419414048e-05,0.0003670968130143741,-0.036417852036461494,0.22207682154042738
22221.0,-9.665968226204301e-05,0.006400951541029376,-0.015100830187897124,0.27482853532941437,13122.0,-4.722370603828997e-05,0.0012967185980933113,-0.03641785203646148,0.17757904315942546,31122,-2.0913438438448346e-05,0.0005742633699952936,-0.036417852036461494,0.22207682154042738
12123.0,-3.1297389938720164e-05,0.002337155671393841,-0.013391230341132952,0.28778908230320505,21121.0,-0.00012264548357974241,0.0034315487800740704,-0.03574056248068113,0.18233113321439706,11112,-4.7135251906203276e-05,0.0012942897307345732,-0.036417852036461494,0.22207682154042738
32222.0,-7.293072632266909e-05,0.006425716627473562,-0.011349819880143656,0.30326509923343414,31333.0,-4.225188233778198e-05,0.0012530527459224147,-0.033719157054860394,0.19651398977718684,31212,-3.7948147607858147e-06,0.00010420204785791466,-0.03641785203646149,0.2220768215404274
22122.0,-3.508518208555646e-05,0.0032712823836605755,-0.010725207417372519,0.30800031208425577,22122.0,-0.00012395960302215596,0.003780854103431293,-0.03278613763743412,0.2030603660748965,31211,-7.942694482209447e-05,0.0021809892780763774,-0.03641785203646149,0.2220768215404274
11223.0,-9.5976276937963e-06,0.0013165842096997695,-0.007289794016278623,0.33404432281784435,22132.0,-5.079592922810173e-05,0.0016058133531980246,-0.03163252387143259,0.21115450610393907,13122,-1.0089687865643497e-05,0.00027705334887795466,-0.03641785203646149,0.2220768215404274
32212.0,-6.432209010498827e-06,0.001539959212731504,-0.004176869723120582,0.3576435303187644,12311.0,-6.28478818900324e-05,0.0020000622485153107,-0.03142296292862171,0.21262485577010903,12331,-1.946965658195812e-05,0.0005346184767422619,-0.03641785203646149,0.2220768215404274
33122.0,-3.274330483302905e-06,0.0011900471753543927,-0.0027514291459309745,0.368449854145934,21332.0,-1.6073365411292553e-05,0.0005150388406601596,-0.031208064600895438,0.21413265431402936,31331,-6.611761706273885e-05,0.0018155276427764607,-0.03641785203646149,0.2220768215404274
23221.0,-3.2719629511465733e-06,0.0013313671971561553,-0.002457596189943387,0.37067741390837367,22121.0,-8.925820174567898e-05,0.0029876670791137046,-0.0298755515196685,0.223482011774772,22323,-9.113213238127856e-06,0.0002502402730672782,-0.03641785203646149,0.2220768215404274
23222.0,-1.0889574986435279e-05,0.006363878214636824,-0.0017111538937670775,0.3763362237527523,23231.0,-5.588337561889521e-05,0.0020081411684123554,-0.027828409923529845,0.23784544191643522,12123,-2.7709444274214064e-06,7.608753049595408e-05,-0.03641785203646148,0.22207682154042746
22322.0,-7.291162378672565e-06,0.004600013684703072,-0.0015850305843477517,0.37729236976511477,23221.0,-9.386832635236522e-05,0.0035071729456972863,-0.02676466995091472,0.24530899735117964,21112,-4.8803418178937306e-05,0.0013400960092340268,-0.03641785203646148,0.22207682154042746
12322.0,1.6218145963187252e-05,0.004737447560188314,0.0034233932422763494,0.4152614374346489,31222.0,-3.778485020161391e-05,0.001413896080481319,-0.02672392315335592,0.2455948905113481,13313,-2.5107153486090266e-06,6.894188449377254e-05,-0.03641785203646148,0.22207682154042746
32233.0,9.192113942070583e-06,0.0013065247655366556,0.0070355451228625715,0.44264530987322775,22321.0,-4.791139532163368e-05,0.00185034148666931,-0.025893271953749544,0.2514230171539503,31213,-1.233175833451635e-05,0.0003386184973833662,-0.03641785203646148,0.22207682154042746
31222.0,1.0651385707569379e-05,0.0013008529051942038,0.008188001629576435,0.451382130199216,22221.0,-2.9911040300204985e-05,0.0011764182700442609,-0.025425514939579806,0.25470495681507227,31223,-1.189851724731503e-05,0.0003267221041867669,-0.03641785203646148,0.22207682154042746
32322.0,3.242009005141827e-05,0.0026036374462891482,0.01245184505147797,0.4837065031003013,21133.0,-2.1279844595861962e-05,0.0008424876433618128,-0.02525834623632951,0.2558778683496418,31321,-9.39569416309496e-06,0.0002579969338578236,-0.03641785203646148,0.22207682154042746
13322.0,1.766421480785298e-05,0.0013943176071630284,0.012668716737927285,0.48535061630306714,33322.0,-8.730465236924409e-05,0.00434808407623142,-0.020078878613799242,0.2922187455549824,31112,-1.3599341653275983e-06,3.7342514434020856e-05,-0.03641785203646147,0.2220768215404275
22233.0,3.054884807949243e-05,0.002049960168667288,0.014902166659829652,0.5022824923097323,23322.0,-3.989491005419124e-05,0.002159420715414747,-0.01847482047819888,0.3034733539403136,22221,-2.960423144997788e-05,0.0008129043805312348,-0.03641785203646147,0.2220768215404275
22132.0,1.3835043895342152e-05,0.0008241154805042135,0.01678774907477474,0.5165771703936737,32333.0,-3.30566617506724e-05,0.0018433318298645917,-0.017933104184014816,0.30727421664702126,21132,-8.96434284891261e-05,0.0024737050801186804,-0.03623852706193468,0.22297420608198157
21212.0,3.949242202407071e-05,0.0022991546581261763,0.01717693147978886,0.5195275782631558,21221.0,-3.446974431905568e-05,0.0027436172802501675,-0.0125636124860362,0.34494836632266135,11131,-1.4237065207454998e-05,0.00043133067915285684,-0.03300730946246837,0.23914398238787632
22123.0,5.562506290829991e-05,0.0028202989241042724,0.019723108934619916,0.5388302545996124,33122.0,-2.0370677697463797e-05,0.001682332216993675,-0.012108593945770216,0.3481409285902639,32131,-4.697425332997443e-05,0.0014310192078256572,-0.03282573222853439,0.24005263776764416
23122.0,2.102231969910404e-05,0.0009848486775473925,0.021345735825585663,0.5511314560071242,12332.0,-3.0021249603010775e-05,0.0025123002102655123,-0.011949706281256085,0.34925573758731887,33322,-5.6802294784582706e-05,0.0017740668535862272,-0.03201812528640532,0.24409409371894614
22222.0,0.00017288016258161138,0.007865709002743759,0.02197896750582896,0.5559320115012181,22322.0,-3.300183147181898e-05,0.002847740816612559,-0.011588776365917765,0.351788142592804,33211,-8.536295397386609e-05,0.0029206097256249935,-0.029227785289114214,0.2580576143376257
21211.0,1.4364995878527847e-05,0.0006147444474962546,0.023367426801549705,0.5664579787077813,11323.0,-4.501000037599763e-06,0.0004917082195004752,-0.009153802720996437,0.36887273210609806,33213,-3.1566224085608165e-05,0.0010849418560748526,-0.029094853248458636,0.25872283767685295
12323.0,2.4031587946967568e-05,0.0010091166319442998,0.02381448009697856,0.5698471081851617,11322.0,-3.0253477956780267e-05,0.0033340500300119463,-0.009074092375474001,0.3694320065508355,23133,-4.952730942065721e-05,0.0017273948521077907,-0.028671678255972173,0.26084050532259895
22332.0,5.1595595656049566e-05,0.0020201380092819956,0.025540629114932524,0.5829331151085355,22213.0,-4.4712195395100675e-06,0.0005501737401374053,-0.00812692284875935,0.37607766474806975,21122,-5.324858293829165e-05,0.002012002760048589,-0.026465462173126304,0.2718809318627296
32321.0,1.0358914501223153e-05,0.0003907426323491375,0.026510837680919407,0.5902883062766018,23223.0,-1.4348793767177049e-05,0.002035260114105183,-0.0070501031626051406,0.3836329918277488,32331,-6.540101562125973e-05,0.0025101451968922908,-0.02605467432809468,0.2739366112959064
11322.0,0.00011321529803386547,0.0042581052096153805,0.02658818710684037,0.5908746954658274,21132.0,-7.0109229244940385e-06,0.0010589315888997718,-0.006620751517837311,0.38664546657178367,13233,-1.6446428222643368e-05,0.0006643877879918163,-0.02475426026771875,0.28044419050220687
33222.0,7.436028530995338e-05,0.0026794472632975233,0.027752098848342396,0.5996983583993702,21123.0,-1.1125985203839257e-05,0.0019910412148789617,-0.005588023553051172,0.3938914313870787,31232,-4.7582733126401335e-05,0.0019818924011075294,-0.024008736851612606,0.2841749658208465
32221.0,4.651780015388089e-05,0.001652015515961235,0.028158210201079278,0.6027771053200011,13222.0,-9.862022047383441e-06,0.0021557522732205624,-0.004574747372363979,0.40100091597913823,12122,-8.636637710237261e-06,0.0003755161860461039,-0.022999375342976292,0.2892260492914012
23232.0,5.057961344356093e-05,0.0017804931110321422,0.02840764343886745,0.6046680689869065,21232.0,-1.0081538810490293e-05,0.0023042139127087847,-0.004375261669450929,0.40240057439234067,23321,-8.294420485835078e-05,0.0036064488280018827,-0.022998858105053217,0.2892286376721758
33211.0,1.4353672972791253e-05,0.0004897224473292393,0.02930981222337417,0.6115074477643544,31132.0,-5.201411529722178e-06,0.0011932691005858709,-0.004358959372339727,0.402514956761468,32233,-4.5387654121465555e-05,0.0020596444256556113,-0.02203664552779205,0.2940437767502748
32323.0,8.400082584422705e-06,0.00028453914455783434,0.029521711669851937,0.6131138662107489,32332.0,-2.970976200977206e-06,0.0010749026712768687,-0.002763949034983796,0.4137060827681181,22231,-2.6576889913221277e-05,0.0012502854356019125,-0.02125665800499918,0.29794701860159206
23332.0,3.1946208421081116e-05,0.0009598823096771269,0.03328138053906502,0.641616071026433,31232.0,-1.4199700632418145e-06,0.001105582022061506,-0.0012843642849709963,0.42408734424781486,32121,-2.140643909388554e-05,0.0011545060780049523,-0.018541642613850072,0.31153359709423006
21122.0,0.00012751555483871577,0.003723973589370483,0.034241798922175375,0.6488970424141843,33221.0,4.118303683117388e-06,0.0020175244072876066,0.0020412658544508534,0.44742107762253347,11221,-2.2428960177743754e-05,0.0013030996058411755,-0.017212007491373183,0.3181874053993295
12222.0,0.00013767460574498283,0.003996952469282335,0.03444489440468696,0.6504367176465131,21322.0,1.424818590470164e-05,0.0026060015993337954,0.005467450944137594,0.47146033816071387,31332,-3.428738703362388e-05,0.0021638589524218318,-0.01584548151590416,0.3250258242489849
33212.0,3.3371077557056246e-05,0.0009408504435813158,0.03546905651660252,0.6582009328723053,33323.0,9.2419815490232e-06,0.001614897565326548,0.005722952184372377,0.47325302031916483,23332,-5.744681347875018e-06,0.00042754510491123827,-0.013436433447338051,0.3370812699686714
22231.0,8.848642598853938e-05,0.002429754118939991,0.036417852036461466,0.6653937908542061,21211.0,1.927843160993375e-05,0.001901332981201746,0.010139429442679067,0.5042405019333267,12323,-1.4544360559789595e-05,0.001227997604841961,-0.011843964925046743,0.34505035870595796
23123.0,4.9190863997222164e-05,0.0013507349073737895,0.03641785203646147,0.6653937908542061,12213.0,1.7309017943584074e-05,0.0016574574819137348,0.010443114307583157,0.5063712565183333,31132,-9.827173189604013e-06,0.0008614810781610872,-0.0114073001006372,0.34723553265788293
11112.0,1.2257071618716894e-05,0.00033656767034050063,0.03641785203646147,0.6653937908542061,33212.0,2.194958018138567e-05,0.0018936140897161443,0.011591369276659717,0.5144277974358048,33212,-3.6176697358072983e-06,0.0005686149861535299,-0.00636224831195445,0.372482163800313
32213.0,5.006996642844488e-05,0.001374874234161722,0.03641785203646147,0.6653937908542061,13231.0,5.949392535830179e-06,0.00048149578725437955,0.012356063528105282,0.5197931480696286,22133,1.4938263370507825e-06,0.0006030165134389324,0.0024772561012163107,0.41671713238910396
11122.0,3.649514769961634e-05,0.0010021224662859708,0.03641785203646148,0.6653937908542061,12211.0,1.526330434077602e-05,0.0012188931777738533,0.012522265789240383,0.520959278723074,12223,5.068167134835845e-06,0.0015439511047853393,0.003282595620500877,0.42074724162076915
31123.0,6.265068412235582e-05,0.0017203289216406853,0.03641785203646148,0.6653937908542061,32232.0,5.133857979789081e-05,0.004057163428494871,0.012653811142366635,0.5218822449183061,12111,2.515982000226324e-06,0.0004369942366608534,0.005757471813475999,0.4331321068281764
21323.0,1.9125620089879388e-05,0.0005251715579142574,0.03641785203646148,0.6653937908542061,22323.0,2.7484069857198415e-05,0.002076321758191903,0.013236903070905554,0.5259734129144691,32132,1.899202281026824e-05,0.0032908461913952456,0.005771166960014027,0.43320064057719804
22111.0,0.00012815594183204887,0.003519041751933623,0.03641785203646148,0.6653937908542061,33123.0,6.707040636852019e-06,0.000491087906609266,0.013657515378786296,0.5289245695478765,11332,7.1496575170714695e-06,0.0010800320279933885,0.0066198569410528965,0.4374476857618737
13223.0,0.0001310413361203706,0.0035982719680768727,0.03641785203646149,0.6653937908542062,32321.0,2.1975984679454774e-05,0.00156785019545994,0.014016635481560125,0.5314442763030849,22332,3.317734874125265e-05,0.0034327629751414145,0.009664911029834761,0.452685855875544
13232.0,2.0418129440974103e-05,0.0005606626502994057,0.03641785203646149,0.6653937908542062,11122.0,1.971749334900279e-05,0.0013804975207293863,0.014282889359037055,0.5333124025608388,32133,1.6824875504927843e-05,0.0016275658787561508,0.010337446689276913,0.4560513832150563
32211.0,7.89449164020399e-06,0.00021677532305584745,0.03641785203646149,0.6653937908542062,32221.0,3.1637649826624384e-05,0.0020067683478165524,0.015765471814944393,0.543714696947728,11121,9.36033881729265e-06,0.0009010823521802639,0.010387883853949998,0.45630378270384403
21123.0,7.867449535981923e-05,0.0021603277228171083,0.03641785203646149,0.6653937908542062,21122.0,3.9476068614042494e-05,0.002209755252153961,0.017864452896112888,0.5584418502550044,33233,1.2086779631235204e-05,0.0010441924548223493,0.011575241302899046,0.46224559991473535
21113.0,0.00011515217263183667,0.0031619704675758067,0.03641785203646149,0.6653937908542062,13232.0,2.642092166023068e-05,0.0014400435993706918,0.018347306756390427,0.5618297144378291,13213,1.496583755649461e-05,0.0012767161579754945,0.011722133743671056,0.46298068439456197
32332.0,1.8780834030096735e-05,0.0005157040566613703,0.03641785203646149,0.6653937908542062,21231.0,4.02637109943177e-05,0.0021290856171912193,0.01891126907683276,0.5657866627053466,23222,5.6350212798027904e-05,0.004478235344653403,0.012583128947277152,0.46728930782031286
11232.0,9.641438573009526e-05,0.0026474484446135198,0.03641785203646149,0.6653937908542062,32222.0,3.163700988591029e-05,0.0016523319691217257,0.019146884813181036,0.567439821517467,22111,2.59970297922624e-05,0.0017621972964784243,0.014752621539151644,0.4781459613349819
11233.0,4.5441444535910836e-05,0.0012477793717876316,0.03641785203646149,0.6653937908542062,22333.0,6.0540603672505796e-05,0.002932583310220208,0.020644120650048916,0.5779449289262609,33132,2.9483022577025592e-05,0.0019495690468580398,0.01512284092966133,0.4799986266366425
13332.0,1.7116397325826527e-05,0.0004700001886077636,0.03641785203646149,0.6653937908542062,22112.0,0.00013617103329499651,0.005479367524599438,0.024851596955973693,0.6074659899544012,11233,1.2725129257989992e-05,0.0007371599441347062,0.017262372106947584,0.49070534615374356
12111.0,5.268687921996375e-05,0.0014467322006584502,0.03641785203646149,0.6653937908542062,13332.0,3.088191393117915e-05,0.0012394050093991525,0.024916725119701024,0.6079229509343924,32123,2.7534181370377807e-05,0.0015771751723879367,0.01745790946524312,0.4916838612941682
13212.0,5.48619170897923e-06,0.00015064566969755558,0.036417852036461494,0.6653937908542064,23113.0,4.347292984425965e-05,0.0017211449515223806,0.02525814563486192,0.6103184714629647,22312,3.9693192673584065e-05,0.002141518322865036,0.01853507030492292,0.4970742286361785
31233.0,3.669237022326152e-05,0.0010075380114819836,0.036417852036461494,0.6653937908542064,33222.0,3.191522029397031e-05,0.001247186112644786,0.02558978164557238,0.6126453406357099,22313,1.2029437558577397e-05,0.0006223689169608821,0.019328467779719607,0.5010445770556855
31223.0,2.2026119084623214e-05,0.0006048165351040117,0.036417852036461494,0.6653937908542064,21222.0,6.441411254866332e-05,0.0024763167229233845,0.02601206540034994,0.6156082246995908,22222,2.4700908193946965e-05,0.0012349932479499381,0.020000844729272757,0.5044093101734148
21333.0,1.353573374758911e-05,0.0003716785310137774,0.036417852036461494,0.6653937908542064,23111.0,8.981202593339526e-05,0.003238527705939642,0.02773236300207497,0.6276784080576229,33222,3.9186131045005014e-05,0.0018628792914840808,0.021035249693385664,0.5095857170121791
21332.0,5.434416506017373e-05,0.0014922397127036609,0.036417852036461494,0.6653937908542064,33312.0,2.8259223107723548e-05,0.0010143506443187577,0.027859422445285244,0.6285698996084915,21113,5.5269172240781e-05,0.002482634979957792,0.022262303031644486,0.5157261818321045
23112.0,7.583552410989083e-05,0.0020823722396907,0.036417852036461494,0.6653937908542064,23133.0,2.457207884670146e-05,0.0008736189156187066,0.028126770617482845,0.6304457038040121,21221,3.159929167157127e-05,0.0013330601832923527,0.023704324881663085,0.5229423998753785
21111.0,4.333773987529858e-05,0.0011900136183734535,0.036417852036461494,0.6653937908542064,23213.0,5.198675593101195e-05,0.0017702528267738691,0.029366853787632846,0.6391465420938005,13322,0.00010640921634807099,0.004341428658855466,0.024510184252601243,0.5269751105675434
22311.0,6.270356741619282e-05,0.001721781047202183,0.036417852036461494,0.6653937908542064,33112.0,4.006958701521529e-05,0.001339348779717148,0.029917216203890845,0.6430080688848292,33332,5.450621802346121e-05,0.0020894427038577966,0.02608648608685218,0.5348632973781807
23233.0,1.7974650771322316e-05,0.0004935670218366016,0.036417852036461494,0.6653937908542064,12323.0,5.897908314521526e-05,0.0017263042490135827,0.034164941190937895,0.6728115281216154,33133,6.41332222712933e-05,0.0024227316292231727,0.026471451273312116,0.5367897541267581
11132.0,0.00013517236286024971,0.0037117060809878453,0.036417852036461494,0.6653937908542064,23233.0,5.188525511880249e-05,0.001518117770809798,0.03417735838183736,0.6728986512861177,12222,1.7620465908388513e-05,0.0006612196104521717,0.026648432124296566,0.5376754081202614
12332.0,5.9452460203507036e-05,0.0016136640445601493,0.03684314613312991,0.6686179629480327,12123.0,7.006114763181185e-05,0.002044969898576512,0.0342602341875941,0.673480135658604,23212,0.00011872083501885429,0.0041887734065946015,0.02834262527353377,0.546153550925212
22232.0,0.00016929261078883529,0.004491945197398339,0.03768804011386577,0.675023139075023,22111.0,0.00012980937680311471,0.003773802763772891,0.0343974990026603,0.6744432315117831,33333,5.470443996798763e-05,0.0018725882426485646,0.029213277495865497,0.5505105003543249
32223.0,7.876295345774158e-05,0.0020890904550502493,0.03770203117214811,0.675129205865111,13223.0,3.250574673095517e-05,0.000900101787886839,0.03611341202562059,0.686482651198701,13223,1.5003553052085236e-05,0.0004795382748038796,0.031287498496801645,0.5608903923181673
23322.0,8.639750737243804e-05,0.002258857240109462,0.03824832567473423,0.679270687028491,11123.0,3.605156131434536e-05,0.0009925238661370596,0.03632311780537772,0.6879540170893291,32113,2.233938740323464e-05,0.0006818375884050894,0.032763502310703484,0.5682766641376146
33232.0,2.3273682699851338e-05,0.0006063722315786211,0.03838184119886386,0.6802828737255637,31111.0,8.699304500527489e-06,0.00023887472802673165,0.036417852036461466,0.6886187041401722,32322,3.639404792895351e-05,0.0010622423253565346,0.034261530594479075,0.5757731516080207
21233.0,6.363781414231734e-05,0.001593919965974281,0.03992535102188699,0.6919842853767535,21131.0,7.400903090828433e-06,0.00020322184524827725,0.03641785203646147,0.6886187041401722,23123,2.959460855855426e-05,0.0008276896669113591,0.03575568204081938,0.5832502384679221
33321.0,3.0352096087232758e-05,0.000758103673930637,0.04003686716074382,0.6928296938264121,32231.0,4.085028996382251e-06,0.00011217105809239733,0.03641785203646148,0.6886187041401723,13211,8.699304500527489e-06,0.00023887472802673165,0.036417852036461466,0.5865638935766887
31221.0,2.8710910985257446e-05,0.0007006552020220807,0.04097723231398008,0.6999586408511224,21333.0,5.7909897252790116e-05,0.0015901513684774941,0.03641785203646148,0.6886187041401723,32212,2.1628815586019375e-05,0.0005939069543246168,0.03641785203646147,0.5865638935766887
23323.0,1.383972614779993e-05,0.00033131011082529775,0.04177272499569963,0.705989303692048,21213.0,1.021517409088215e-05,0.00028049908272060464,0.03641785203646148,0.6886187041401723,12132,1.573083043383733e-05,0.00043195382358321557,0.03641785203646148,0.5865638935766888
33221.0,7.474517414773642e-05,0.0017735072523077375,0.042145400900095505,0.7088145750993102,23123.0,3.084483230754019e-05,0.0008469701144553612,0.03641785203646148,0.6886187041401723,12211,2.071047372107856e-05,0.0005686901495547644,0.03641785203646148,0.5865638935766888
21221.0,7.867914161635311e-05,0.0018639156233932804,0.042211750697768606,0.7093175756529612,13132.0,2.1313784818106005e-05,0.000585256505429444,0.03641785203646148,0.6886187041401723,21322,2.6249240778343934e-05,0.0007207794889183263,0.03641785203646148,0.5865638935766888
32231.0,2.8381710049102548e-05,0.0006712827481855474,0.0422798144683701,0.7098335699060979,32131.0,3.5936431570585837e-06,9.86780646332638e-05,0.03641785203646148,0.6886187041401723,21111,2.4089954157122405e-05,0.000661487507088655,0.03641785203646148,0.5865638935766888
22321.0,5.141168045953493e-05,0.0012120425102904455,0.042417390498304376,0.7108765394652059,13312.0,2.6249240778343934e-05,0.0007207794889183263,0.03641785203646148,0.6886187041401723,32213,2.3517750119746366e-05,0.0006457753218449139,0.03641785203646148,0.5865638935766888
22312.0,0.00011265304365128913,0.002613309357854784,0.04310742748947407,0.716107738365133,13212.0,5.70791332490106e-05,0.0015673393694900807,0.03641785203646149,0.6886187041401725,21232,1.5004227055251171e-05,0.0004120019774979856,0.03641785203646148,0.5865638935766888
12211.0,0.00010701034830271266,0.0024362616966311598,0.04392399570648982,0.7222981757086834,11223.0,3.7688568601789285e-05,0.0010348926829637168,0.03641785203646149,0.6886187041401725,23113,2.8551472265378142e-05,0.0007839966024572911,0.03641785203646148,0.5865638935766888
23212.0,6.500765829182075e-05,0.001435491912400089,0.045285980178829684,0.7326234361868854,13331.0,1.7791958963885264e-06,4.885504764551184e-05,0.03641785203646149,0.6886187041401725,22132,2.746050398901752e-05,0.0007540396386235002,0.03641785203646149,0.5865638935766888
11222.0,0.0001575799221281715,0.0031796416473014104,0.049559019413999365,0.7650175229277616,12312.0,4.359016106195725e-06,0.00011969448669931125,0.03641785203646149,0.6886187041401725,33121,1.3826849820172233e-05,0.0003796723048445805,0.03641785203646149,0.5865638935766888
22133.0,7.741631903450025e-05,0.0015554261612820276,0.04977177378236423,0.766630422572255,11333.0,2.2764186341398127e-05,0.0006250831685132518,0.03641785203646149,0.6886187041401725,33113,1.2129495834612813e-05,0.00033306455917468127,0.03641785203646149,0.5865638935766888
12333.0,4.997640054630101e-05,0.000971403621186388,0.05144761606433398,0.7793350520545538,22312.0,2.2005479623712386e-05,0.0006042497948995053,0.03641785203646149,0.6886187041401725,31111,1.5163490483812157e-05,0.00041637520160800527,0.03641785203646149,0.5865638935766888
11221.0,7.530905664341029e-05,0.0014633407058158836,0.05146378853817357,0.7794576562459832,23311.0,1.7303743099713734e-05,0.00047514452753526644,0.03641785203646149,0.6886187041401725,23131,1.4344549442648609e-05,0.0003938878500655907,0.03641785203646149,0.5865638935766888
12212.0,0.00013485624499091353,0.0026073203038431683,0.051722162709405724,0.7814164014982167,12233.0,2.205049589555304e-05,0.0006054858994285583,0.03641785203646149,0.6886187041401725,31323,3.1124559218496965e-05,0.0008546511526087567,0.03641785203646149,0.5865638935766888
12232.0,4.124812804522027e-05,0.0007699593271316181,0.05357182722740009,0.7954387845234574,31113.0,0.0001310413361203706,0.0035982719680768727,0.03641785203646149,0.6886187041401725,12112,1.9929241729225007e-05,0.0005472382530763178,0.03641785203646149,0.5865638935766888
12122.0,4.3542574031883615e-05,0.000807750384235626,0.05390597749215303,0.7979719914670776,32132.0,3.985986699473452e-05,0.0010945144967590863,0.036417852036461494,0.6886187041401725,31312,9.926178573110784e-06,0.0002725635373325344,0.03641785203646149,0.5865638935766888
22323.0,0.00011499149373637288,0.0020953769665502586,0.054878666498701704,0.8053459869573819,11313.0,4.909415004332678e-05,0.00134807923306882,0.036417852036461494,0.6886187041401725,11223,2.0002273946453798e-05,0.000549243649142941,0.036417852036461494,0.5865638935766888
22213.0,7.868677369163136e-05,0.001337803163254274,0.05881790075919823,0.8352094844129788,11213.0,1.818014922352742e-05,0.0004992098162551016,0.036417852036461494,0.6886187041401725,21312,3.529268431097136e-05,0.0009691039514257014,0.036417852036461494,0.5865638935766888
22211.0,0.00012481358613162854,0.002094468579154504,0.05959200695291087,0.8410780154059503,33233.0,2.844461106754257e-06,7.810622943677149e-05,0.036417852036461494,0.6886187041401725,12231,3.191926057667022e-05,0.0008764729052310033,0.036417852036461494,0.5865638935766888
21223.0,5.045975015978544e-05,0.000798616411620079,0.06318396344675967,0.868308785784442,11331.0,1.5203215162907256e-06,4.1746600397205805e-05,0.036417852036461494,0.6886187041401725,11122,4.045369066787019e-05,0.0011108203368877447,0.036417852036461494,0.5865638935766888
32122.0,7.660209661612363e-05,0.0011507461105983413,0.06656733045684043,0.8939582306804056,12111.0,1.2433304619682278e-05,0.00034140686296473704,0.036417852036461494,0.6886187041401725,21331,8.450976263029137e-07,2.3205586794542507e-05,0.036417852036461494,0.5865638935766888
22112.0,0.00018423796736732296,0.0024866609925208163,0.07409050446420298,0.9509917232248591,31233.0,5.969663243622586e-06,0.00016392134378616748,0.0364178520364615,0.6886187041401725,23232,2.6935596873919822e-05,0.0007396261824270126,0.036417852036461494,0.5865638935766888
22223.0,0.00035595087062711414,0.0044187260934177896,0.08055508829962207,1.0,13321.0,4.339061066859238e-05,0.001168459449993817,0.03713488788063804,0.6936496674483894,32323,2.167253730495042e-05,0.0005951075116470875,0.036417852036461494,0.5865638935766888
,,,,,11221.0,2.5750968106023348e-05,0.0006695490338250782,0.03846016767272473,0.702948273733221,13312,0.00013517236286024971,0.0037117060809878453,0.036417852036461494,0.5865638935766888
,,,,,12113.0,4.6851094564709066e-05,0.0011712440292926843,0.04000113844166403,0.713760240053359,33112,1.3646330441079114e-06,3.7471541230428504e-05,0.036417852036461494,0.5865638935766888
,,,,,21111.0,6.11488581246698e-05,0.001522127237135175,0.04017328948121265,0.7149681093258291,31233,4.398590016443194e-05,0.001207811490924652,0.0364178520364615,0.5865638935766888
,,,,,33333.0,7.931283895171622e-05,0.001960973358891093,0.04044564837768458,0.7168790704387847,11212,5.749687618892978e-05,0.0015673661113222693,0.03668375612665504,0.5878945404690437
,,,,,22113.0,4.2987410964742915e-05,0.0010571548951449595,0.04066330408359731,0.7184062156703158,32122,0.000109906118117601,0.002992605235359497,0.03672589916604826,0.5881054341952822
,,,,,12333.0,5.8328856682090055e-05,0.001414858217497116,0.04122593766693725,0.722353841073903,22311,0.00013125720130999276,0.003519958911062276,0.037289412923965384,0.5909253901810131
,,,,,33231.0,1.6002260769134713e-05,0.0003818609745959795,0.04190598629793367,0.7271252897234126,31113,0.00013023319516509957,0.003466749606632763,0.03756636906107402,0.5923113441273926
,,,,,32213.0,1.3997971376601815e-05,0.0003294945094021168,0.0424831703629957,0.731175006173431,33123,3.930525864875323e-05,0.001043908283215461,0.03765202296094885,0.5927399764797703
,,,,,12132.0,5.7975820112773985e-06,0.00013390083894518508,0.043297577946100486,0.7368891621696898,32333,2.7199212732808696e-05,0.0007025734920385409,0.038713690512133116,0.5980528117455575
,,,,,23132.0,4.366167630951182e-05,0.0010039958622712348,0.043487904632137205,0.7382245578570907,22322,4.615837505533741e-05,0.0011424144241529992,0.040404229918192626,0.6065126703563788
,,,,,32212.0,8.794117974838457e-05,0.0019637198897842953,0.04478295514847816,0.7473110654325678,32312,4.979172608933648e-05,0.0012256812550336521,0.04062371508485655,0.6076110259880155
,,,,,23222.0,9.159694505531739e-05,0.002005591703124048,0.04567078379544534,0.7535403681698742,22122,6.455479176769307e-05,0.0015822273936612467,0.04079994571343781,0.6084929256913586
,,,,,32313.0,4.936379881285764e-05,0.0010505982653364917,0.04698636999657249,0.7627709609783387,13133,1.9125356118104465e-05,0.0004613035293130909,0.0414593752330126,0.6117928668103935
,,,,,33223.0,0.00017150705177534478,0.0035576438290274045,0.048208044429852805,0.7713426374131178,11322,4.892117386171398e-05,0.0011646587121795981,0.04200472923965902,0.6145219471101704
,,,,,32133.0,3.6182943042013735e-05,0.0007425952145444828,0.04872498816762347,0.7749696875784041,23231,3.139744047159968e-05,0.0007442211555796483,0.0421883202811472,0.6154406800587408
,,,,,31123.0,6.110734497034725e-05,0.0012494040378541263,0.0489091943990354,0.7762621401090619,21323,5.592452850882579e-05,0.0013229087800867836,0.04227391136156577,0.615868998047717
,,,,,31323.0,0.00019690083551339102,0.003956416670081236,0.04976746686019501,0.782284066761147,31222,6.96145283718462e-05,0.0016343068257721877,0.042595752079144795,0.6174795650396279
,,,,,12122.0,0.00015465319978452257,0.00310152268948599,0.04986363643535137,0.7829588246660801,23311,1.6183797149725526e-05,0.00037630295121597894,0.043007361747840346,0.6195393570725908
,,,,,32312.0,5.166885017781735e-05,0.0010246059110570432,0.05042802273560256,0.7869187477177442,23213,0.00017571646936242918,0.0040567364677897,0.04331473605880239,0.6210775307478195
,,,,,23212.0,0.00011079093847323605,0.002196581113851527,0.050437899959438835,0.7869880496237938,22113,2.1481869119430457e-05,0.00048379783289222324,0.044402574089694245,0.6265213292773495
,,,,,21112.0,1.627447274262837e-05,0.0003176001960889747,0.05124201100325872,0.7926299616565677,23313,5.387131646460305e-05,0.001209060357639895,0.044556349998738455,0.6272908602587639
,,,,,31223.0,6.31483765498556e-05,0.0012318562612262795,0.05126278003165167,0.792775684106346,32111,3.3264723832350346e-05,0.0007116392527157416,0.04674380130860722,0.6382373834413735
,,,,,33313.0,0.0001750888810899145,0.0034147925681588497,0.05127365062303535,0.7928519558113578,23333,7.144528483696215e-05,0.0015283302019488967,0.04674728324144647,0.6382548078559757
,,,,,11222.0,0.00011281508715666132,0.002195845340904047,0.051376608841775015,0.7935743451102548,23112,0.0001271259051431028,0.002715180782720248,0.04682042019159388,0.6386208024345439
,,,,,12313.0,0.00011699484918252954,0.0022758498451215105,0.051407103782931264,0.793788307816986,12322,0.00021116066841314472,0.004506251497125503,0.046859494759190025,0.6388163408029236
,,,,,33132.0,0.00020339877830136458,0.0039501088076570314,0.05149194318573938,0.7943835694431447,21333,6.468313133766892e-05,0.001375752891942074,0.0470165330682019,0.6396021976045817
,,,,,33213.0,5.497685850418523e-05,0.00106693316036067,0.05152793122073425,0.7946360735335114,31123,0.0001232043831264376,0.002608903321347178,0.04722458748023582,0.6406433510393112
,,,,,32121.0,2.0110273070165766e-05,0.00038629399261602996,0.05205950248922213,0.7983657553467491,13111,2.0668362293999335e-05,0.0004343995142491999,0.047579156090268124,0.642417696137661
,,,,,21223.0,3.0274579367008564e-05,0.0005659469889007636,0.05349366629869478,0.8084283283157695,13231,5.864224892770778e-06,0.00012228902860054482,0.04795381041030407,0.6442925548745095
,,,,,33332.0,2.3735659964902246e-05,0.0004347311837060235,0.0545984756891811,0.8161800405227002,22223,0.00012223456120760264,0.0025184901147145937,0.04853485844293449,0.6472002565137202
,,,,,21113.0,5.003869691066768e-05,0.0009154184714206829,0.05466210096570388,0.8166264567433968,11312,8.905851018011296e-05,0.0018337207811747595,0.04856710525091955,0.6473616271598145
,,,,,12112.0,8.97263017507153e-05,0.0016228048638108935,0.05529087554002498,0.8210381494617462,12321,7.756194596620271e-05,0.0015956921467614306,0.048607086350346544,0.6475617020276615
,,,,,11112.0,0.00013316281977109523,0.0023771510148843287,0.056017820886139574,0.8261386411499708,13222,2.8779243185600072e-05,0.0005866441107271762,0.04905741429829865,0.6498152494779728
,,,,,21233.0,6.832707270805759e-05,0.0011995208263070273,0.056961972822444945,0.8327631269236064,21313,4.251701956098017e-05,0.0008543917771083488,0.0497629081881817,0.653345707589636
,,,,,11212.0,0.00021785233319191496,0.0038190065546635575,0.057044241761220825,0.8333403533143774,13323,4.8216640489863864e-05,0.0009657266144716411,0.04992783647807375,0.6541710477197802
,,,,,31121.0,5.9009978073341255e-05,0.001017592281142759,0.05798980511828656,0.8399747420881427,23312,0.0001708002459482434,0.0034088514490239062,0.05010492492923108,0.6550572401699714
,,,,,13233.0,3.094276006099393e-05,0.0005325953789758092,0.0580980633374954,0.8407343179630112,23233,4.562622509771256e-05,0.0008957680699646945,0.050935310855086464,0.6592126875378188
,,,,,23232.0,0.00012615102150066208,0.002163719530452197,0.05830285289993094,0.8421711900285944,21123,0.00015745208073308293,0.003081465065611105,0.051096500327144745,0.6600193177401543
,,,,,33321.0,4.239814835433013e-05,0.0007146333205277493,0.059328535539064337,0.8493677224826744,23111,0.0001151258588847975,0.0022358864100037877,0.05149003024916748,0.6619886344490739
,,,,,21323.0,6.12178871121532e-05,0.0010212952152425837,0.05994142163645836,0.8536679363327181,32313,5.9439772863967036e-05,0.0011541731548658535,0.051499874705434094,0.6620378984341767
,,,,,11233.0,0.00011518408716924063,0.0019188483942023488,0.06002771637262245,0.8542734090644646,21133,5.2904273506660476e-05,0.0010266724967138762,0.05152984391419262,0.6621878714356144
,,,,,32233.0,9.144324260773006e-05,0.001495399251922318,0.0611497180369596,0.8621457480149967,31333,0.0001030605556900971,0.001999760472388763,0.05153645004643419,0.6622209300821787
,,,,,32123.0,0.00011042958409017088,0.001793142364319288,0.06158439301170162,0.8651955730226134,13123,1.7394884033104536e-05,0.00032605858139260946,0.053348953304066644,0.6712911246226093
,,,,,32211.0,0.00027844489641523586,0.004494803067596743,0.06194818598896109,0.8677480662281396,21332,3.583068665388535e-05,0.0006629004344134105,0.05405138508559181,0.6748062592205667
,,,,,23122.0,4.1139260962653505e-05,0.0006636913597020482,0.06198553041450201,0.8680100872082465,22123,6.25056050097124e-05,0.0011334648507366884,0.0551456050614073,0.6802819945103535
,,,,,12223.0,0.000191197122485651,0.0030779521717571486,0.0621182889844906,0.8689415657387667,11232,0.0001088304381317442,0.0019318765696595551,0.056334053552356524,0.6862292715531938
,,,,,32311.0,9.531314882318407e-05,0.0015323225356767087,0.06220175361520191,0.8695271815040772,23223,0.00023452960608005526,0.004033191619094352,0.058149879358501334,0.6953160929113971
,,,,,22223.0,0.00013186570412604566,0.002059343905599899,0.06403287171582564,0.8823749185482823,12212,8.5233628769859e-05,0.0014574886938814046,0.058479787272225955,0.6969670300588527
,,,,,32322.0,0.00013317886710087742,0.001980801022623397,0.06723485376865047,0.9048410955911204,13321,5.4009779707346015e-05,0.0009233743936459557,0.058491745145853244,0.6970268700837645
,,,,,22233.0,0.00015693828712822803,0.002331645682083246,0.06730794834488275,0.9053539515857556,32222,0.0001249615930088613,0.0021087172391048865,0.059259530244986904,0.7008690481240305
,,,,,21212.0,6.448327502669341e-05,0.0009396869697859706,0.0686220806503048,0.9145743433756716,33122,4.0994911787149344e-05,0.0006844855730343857,0.059891564412987174,0.7040318964311004
,,,,,12321.0,8.908609730302892e-05,0.001276528284750842,0.06978779739331598,0.9227534019394711,33232,5.1668421424459756e-06,8.544968988340636e-05,0.060466482084323335,0.7069089202939771
,,,,,32223.0,0.00014684971391244557,0.002081230501992967,0.07055908212560966,0.9281649935912296,21212,2.6849649209149655e-05,0.0004412854432789956,0.0608441760726161,0.7087989902489636
,,,,,12232.0,0.00013084333148755912,0.0018284993490079462,0.07155776760792848,0.9351721049634163,12213,5.909958513818919e-05,0.0009686496879671417,0.06101234106854319,0.7096405276208423
,,,,,23333.0,0.0001896508785395537,0.0026038448647508097,0.07283493771342765,0.9441331575960041,13212,5.595440254841694e-05,0.0009164186322968461,0.06105768758561449,0.709867452306266
,,,,,32323.0,9.328426235516835e-05,0.001239775587187998,0.07524286114291977,0.961027953750418,12333,9.468349311373127e-05,0.0015367361457619452,0.061613370242414166,0.7126482196117548
,,,,,22222.0,0.00021371012515819954,0.002645014531794742,0.08079733498219731,1.0,11222,9.389248126199464e-05,0.00149210648647291,0.06292612632757917,0.7192175612261439
,,,,,,,,,,11321,0.00012673404964983227,0.001976567457547783,0.06411825165181266,0.7251832380114621
,,,,,,,,,,12312,6.865384277123112e-05,0.0010368551586331378,0.06621353252631342,0.7356685185584276
,,,,,,,,,,21233,0.00011801460502313485,0.0017350310591121311,0.0680187276206609,0.7447021413230841
,,,,,,,,,,13333,0.00010397849677430965,0.0014821746591773834,0.07015266124710187,0.7553808493732249
,,,,,,,,,,33323,0.00017509648312803643,0.0024567864938721076,0.0712705330987347,0.7609749442378185
,,,,,,,,,,21223,0.0001564698005280818,0.002191864587983745,0.07138661821806037,0.7615558616022973
,,,,,,,,,,22321,0.0002024434832187465,0.002826332609949738,0.07162762178310876,0.762761900383591
,,,,,,,,,,11133,0.0001628952957398682,0.0020574839733819425,0.079172084860575,0.8005161761497483
,,,,,,,,,,33223,0.00010772603684739598,0.0012344874348753324,0.08726377750315048,0.8410089179533676
,,,,,,,,,,22333,0.00022262685175369285,0.0024888370494037648,0.08945015175140783,0.851950051265197
,,,,,,,,,,22112,0.00041053806550240515,0.004412027508198312,0.09304975201073752,0.8699633014386348
,,,,,,,,,,32223,0.0002511688550117813,0.0026923423921839233,0.09329008663271944,0.8711659926707732
,,,,,,,,,,23323,0.0002008887934433877,0.00196748237567201,0.10210449451918087,0.9152753723103668
,,,,,,,,,,22233,0.00038784349243916667,0.0032582286408155544,0.11903507555629586,1.0
